  k             x             y       f(x, y)            Sx            Sy        lambda |xk - x(k-1)| |yk - y(k-1)| |fk - f(k-1)|         angle           H00           H01           H10           H11
  1 -2.472558e+00  6.120942e+00  1.206413e+01  7.980000e+02 -2.000000e+02 -5.604710e-03  4.472558e+00  1.120942e+00 -8.893587e+01  1.260663e+02  2.802001e+03 -8.000000e+02 -8.000000e+02  2.000000e+02
  2 -2.472951e+00  6.119374e+00  1.206290e+01 -3.707878e-01 -1.479421e+00  1.059579e-03  3.928791e-04  1.567564e-03 -1.232432e-03  1.439252e+02  4.889878e+03  9.890233e+02  9.890233e+02  2.000000e+02
  3 -2.215552e+00  4.846239e+00  1.072955e+01  1.556737e+01 -7.699857e+01  1.653454e-02  2.573992e-01  1.273136e+00 -1.333350e+00     -nan(ind)  4.892836e+03  9.891805e+02  9.891805e+02  2.000000e+02
  4 -1.901019e+00  3.534871e+00  9.040029e+00  2.384224e-01 -9.940425e-01  1.319227e+00  3.145334e-01  1.311368e+00 -1.689523e+00  9.089881e+01  3.953910e+03  8.862208e+02  8.862208e+02  2.000000e+02
  5 -1.478842e+00  2.122893e+00  6.555285e+00  1.726729e-01 -5.775074e-01  2.444952e+00  4.221769e-01  1.411978e+00 -2.484744e+00  9.048427e+01  2.924699e+03  7.604075e+02  7.604075e+02  2.000000e+02
  6 -1.209724e+00  1.423049e+00  5.045969e+00  1.794116e-01 -4.665625e-01  1.500000e+00  2.691174e-01  6.998437e-01 -1.509316e+00  9.060408e+01  1.777211e+03  5.915367e+02  5.915367e+02  2.000000e+02
  7 -1.039318e+00  1.039029e+00  4.328180e+00  2.434373e-01 -5.486002e-01  7.000000e-01  1.704061e-01  3.840201e-01 -7.177891e-01  9.126909e+01  1.188901e+03  4.838898e+02  4.838898e+02  2.000000e+02
  8 -8.846755e-01  7.463903e-01  3.683484e+00  2.209183e-01 -4.180554e-01  7.000000e-01  1.546428e-01  2.926388e-01 -6.446963e-01  9.110524e+01  8.826082e+02  4.157273e+02  4.157273e+02  2.000000e+02
  9 -7.248117e-01  4.889174e-01  3.107723e+00  2.283769e-01 -3.678184e-01  7.000000e-01  1.598638e-01  2.574729e-01 -5.757605e-01  9.124945e+01  6.426256e+02  3.538702e+02  3.538702e+02  2.000000e+02
 10 -5.791229e-01  3.032277e-01  2.597027e+00  2.081268e-01 -2.652709e-01  7.000000e-01  1.456888e-01  1.856897e-01 -5.106958e-01  9.111531e+01  4.368562e+02  2.899247e+02  2.899247e+02  2.000000e+02
 11 -4.303801e-01  1.534560e-01  2.146927e+00  2.124897e-01 -2.139597e-01  7.000000e-01  1.487428e-01  1.497718e-01 -4.500999e-01  9.125649e+01  2.831697e+02  2.316492e+02  2.316492e+02  2.000000e+02
 12 -2.942389e-01  5.851078e-02  1.753823e+00  1.944874e-01 -1.356360e-01  7.000000e-01  1.361412e-01  9.494518e-02 -3.931045e-01  9.118792e+01  1.628909e+02  1.721520e+02  1.721520e+02  2.000000e+02
 13 -1.572525e-01 -2.456678e-03  1.413136e+00  1.956949e-01 -8.709637e-02  7.000000e-01  1.369865e-01  6.096746e-02 -3.406873e-01  9.136826e+01  8.248833e+01  1.176956e+02  1.176956e+02  2.000000e+02
 14 -3.141336e-02 -2.300418e-02  1.121370e+00  1.797701e-01 -2.935358e-02  7.000000e-01  1.258391e-01  2.054750e-02 -2.917655e-01  9.108167e+01  3.265747e+01  6.290098e+01  6.290098e+01  2.000000e+02
 15  9.309767e-02 -1.403312e-02  8.740022e-01  1.778729e-01  1.281580e-02  7.000000e-01  1.245110e-01  8.971063e-03 -2.473681e-01  8.813615e+01  1.238663e+01  1.256534e+01  1.256534e+01  2.000000e+02
 16  2.076788e-01  2.319156e-02  6.675290e-01  1.636873e-01  5.317810e-02  7.000000e-01  1.145811e-01  3.722467e-02 -2.064732e-01  8.791889e+01  1.801466e+01 -3.723907e+01 -3.723907e+01  2.000000e+02
 17  3.188665e-01  8.333146e-02  4.975945e-01  1.588396e-01  8.591415e-02  7.000000e-01  1.111877e-01  6.013990e-02 -1.699345e-01  8.747946e+01  4.448074e+01 -8.307151e+01 -8.307151e+01  2.000000e+02
 18  4.209794e-01  1.612933e-01  3.606425e-01  1.458756e-01  1.113740e-01  7.000000e-01  1.021129e-01  7.796183e-02 -1.369520e-01  8.734215e+01  9.067923e+01 -1.275466e+02 -1.275466e+02  2.000000e+02
 19  5.177947e-01  2.539590e-01  2.525507e-01  1.383075e-01  1.323796e-01  7.000000e-01  9.681528e-02  9.266573e-02 -1.080917e-01  8.703869e+01  1.501519e+02 -1.683918e+02 -1.683918e+02  2.000000e+02
 20  6.630532e-01  4.207190e-01  1.493320e-01  1.258739e-01  1.445060e-01  1.154000e+00  1.452586e-01  1.667600e-01 -1.032188e-01  8.694476e+01  2.221508e+02 -2.071179e+02 -2.071179e+02  2.000000e+02
 21  8.786097e-01  7.644824e-01  2.031957e-02  7.042433e-02  1.123108e-01  3.060824e+00  2.155565e-01  3.437634e-01 -1.290124e-01  8.873837e+01  3.612807e+02 -2.652213e+02 -2.652213e+02  2.000000e+02
 22  9.515923e-01  9.039378e-01  2.596167e-03  4.865508e-02  9.297024e-02  1.500000e+00  7.298262e-02  1.394554e-01 -1.772340e-02  8.797704e+01  6.225538e+02 -3.514439e+02 -3.514439e+02  2.000000e+02
 23  9.937016e-01  9.859033e-01  2.767104e-04  3.671606e-02  7.146761e-02  1.146891e+00  4.210932e-02  8.196555e-02 -2.319456e-03  8.268118e+01  7.270592e+02 -3.806369e+02 -3.806369e+02  2.000000e+02
 24  9.970715e-01  9.936784e-01  3.097162e-05  4.814127e-03  1.110723e-02  7.000000e-01  3.369889e-03  7.775058e-03 -2.457388e-04  8.904334e+01  7.925710e+02 -3.974807e+02 -3.974807e+02  2.000000e+02
 25  9.989435e-01  9.977427e-01  3.232475e-06  2.674295e-03  5.806167e-03  7.000000e-01  1.872006e-03  4.064317e-03 -2.773914e-05  8.833167e+01  7.975114e+02 -3.988286e+02 -3.988286e+02  2.000000e+02
 26  9.996619e-01  9.992797e-01  3.093305e-07  1.026211e-03  2.195729e-03  7.000000e-01  7.183475e-04  1.537011e-03 -2.923145e-06  8.793171e+01  8.003695e+02 -3.995774e+02 -3.995774e+02  2.000000e+02
 27  9.998964e-01  9.997795e-01  2.842977e-08  3.350327e-04  7.139979e-04  7.000000e-01  2.345229e-04  4.997985e-04 -2.809008e-07  8.777906e+01  8.014776e+02 -3.998647e+02 -3.998647e+02  2.000000e+02

  k             x             y       f(x, y)            Sx            Sy        lambda |xk - x(k-1)| |yk - y(k-1)| |fk - f(k-1)|         angle           H00           H01           H10           H11
  1 -2.472558e+00  6.120942e+00  1.206413e+01  7.980000e+02 -2.000000e+02 -5.604710e-03  4.472558e+00  1.120942e+00 -8.893587e+01  1.260663e+02  2.802001e+03 -8.000000e+02 -8.000000e+02  2.000000e+02
  2 -2.472951e+00  6.119374e+00  1.206290e+01 -3.707878e-01 -1.479421e+00  1.059579e-03  3.928791e-04  1.567564e-03 -1.232432e-03  1.439252e+02  4.889878e+03  9.890233e+02  9.890233e+02  2.000000e+02
  3 -2.215552e+00  4.846239e+00  1.072955e+01  1.556737e+01 -7.699857e+01  1.653454e-02  2.573992e-01  1.273136e+00 -1.333350e+00     -nan(ind)  4.892836e+03  9.891805e+02  9.891805e+02  2.000000e+02
  4 -1.901019e+00  3.534871e+00  9.040029e+00  2.384224e-01 -9.940425e-01  1.319227e+00  3.145334e-01  1.311368e+00 -1.689523e+00  9.089881e+01  3.953910e+03  8.862208e+02  8.862208e+02  2.000000e+02
  5 -1.478842e+00  2.122893e+00  6.555285e+00  1.726729e-01 -5.775074e-01  2.444952e+00  4.221769e-01  1.411978e+00 -2.484744e+00  9.048427e+01  2.924699e+03  7.604075e+02  7.604075e+02  2.000000e+02
  6 -1.209724e+00  1.423049e+00  5.045969e+00  1.794116e-01 -4.665625e-01  1.500000e+00  2.691174e-01  6.998437e-01 -1.509316e+00  9.060408e+01  1.777211e+03  5.915367e+02  5.915367e+02  2.000000e+02
  7 -1.039318e+00  1.039029e+00  4.328180e+00  2.434373e-01 -5.486002e-01  7.000000e-01  1.704061e-01  3.840201e-01 -7.177891e-01  9.126909e+01  1.188901e+03  4.838898e+02  4.838898e+02  2.000000e+02
  8 -8.846755e-01  7.463903e-01  3.683484e+00  2.209183e-01 -4.180554e-01  7.000000e-01  1.546428e-01  2.926388e-01 -6.446963e-01  9.110524e+01  8.826082e+02  4.157273e+02  4.157273e+02  2.000000e+02
  9 -7.248117e-01  4.889174e-01  3.107723e+00  2.283769e-01 -3.678184e-01  7.000000e-01  1.598638e-01  2.574729e-01 -5.757605e-01  9.124945e+01  6.426256e+02  3.538702e+02  3.538702e+02  2.000000e+02
 10 -5.791229e-01  3.032277e-01  2.597027e+00  2.081268e-01 -2.652709e-01  7.000000e-01  1.456888e-01  1.856897e-01 -5.106958e-01  9.111531e+01  4.368562e+02  2.899247e+02  2.899247e+02  2.000000e+02
 11 -4.303801e-01  1.534560e-01  2.146927e+00  2.124897e-01 -2.139597e-01  7.000000e-01  1.487428e-01  1.497718e-01 -4.500999e-01  9.125649e+01  2.831697e+02  2.316492e+02  2.316492e+02  2.000000e+02
 12 -2.942389e-01  5.851078e-02  1.753823e+00  1.944874e-01 -1.356360e-01  7.000000e-01  1.361412e-01  9.494518e-02 -3.931045e-01  9.118792e+01  1.628909e+02  1.721520e+02  1.721520e+02  2.000000e+02
 13 -1.572525e-01 -2.456678e-03  1.413136e+00  1.956949e-01 -8.709637e-02  7.000000e-01  1.369865e-01  6.096746e-02 -3.406873e-01  9.136826e+01  8.248833e+01  1.176956e+02  1.176956e+02  2.000000e+02
 14 -3.141336e-02 -2.300418e-02  1.121370e+00  1.797701e-01 -2.935358e-02  7.000000e-01  1.258391e-01  2.054750e-02 -2.917655e-01  9.108167e+01  3.265747e+01  6.290098e+01  6.290098e+01  2.000000e+02
 15  9.309767e-02 -1.403312e-02  8.740022e-01  1.778729e-01  1.281580e-02  7.000000e-01  1.245110e-01  8.971063e-03 -2.473681e-01  8.813615e+01  1.238663e+01  1.256534e+01  1.256534e+01  2.000000e+02
 16  2.076788e-01  2.319156e-02  6.675290e-01  1.636873e-01  5.317810e-02  7.000000e-01  1.145811e-01  3.722467e-02 -2.064732e-01  8.791889e+01  1.801466e+01 -3.723907e+01 -3.723907e+01  2.000000e+02
 17  3.188665e-01  8.333146e-02  4.975945e-01  1.588396e-01  8.591415e-02  7.000000e-01  1.111877e-01  6.013990e-02 -1.699345e-01  8.747946e+01  4.448074e+01 -8.307151e+01 -8.307151e+01  2.000000e+02
 18  4.209794e-01  1.612933e-01  3.606425e-01  1.458756e-01  1.113740e-01  7.000000e-01  1.021129e-01  7.796183e-02 -1.369520e-01  8.734215e+01  9.067923e+01 -1.275466e+02 -1.275466e+02  2.000000e+02
 19  5.177947e-01  2.539590e-01  2.525507e-01  1.383075e-01  1.323796e-01  7.000000e-01  9.681528e-02  9.266573e-02 -1.080917e-01  8.703869e+01  1.501519e+02 -1.683918e+02 -1.683918e+02  2.000000e+02
 20  6.630532e-01  4.207190e-01  1.493320e-01  1.258739e-01  1.445060e-01  1.154000e+00  1.452586e-01  1.667600e-01 -1.032188e-01  8.694476e+01  2.221508e+02 -2.071179e+02 -2.071179e+02  2.000000e+02
 21  8.786097e-01  7.644824e-01  2.031957e-02  7.042433e-02  1.123108e-01  3.060824e+00  2.155565e-01  3.437634e-01 -1.290124e-01  8.873837e+01  3.612807e+02 -2.652213e+02 -2.652213e+02  2.000000e+02
 22  9.515923e-01  9.039378e-01  2.596167e-03  4.865508e-02  9.297024e-02  1.500000e+00  7.298262e-02  1.394554e-01 -1.772340e-02  8.797704e+01  6.225538e+02 -3.514439e+02 -3.514439e+02  2.000000e+02
 23  9.937016e-01  9.859033e-01  2.767104e-04  3.671606e-02  7.146761e-02  1.146891e+00  4.210932e-02  8.196555e-02 -2.319456e-03  8.268118e+01  7.270592e+02 -3.806369e+02 -3.806369e+02  2.000000e+02
 24  9.970715e-01  9.936784e-01  3.097162e-05  4.814127e-03  1.110723e-02  7.000000e-01  3.369889e-03  7.775058e-03 -2.457388e-04  8.904334e+01  7.925710e+02 -3.974807e+02 -3.974807e+02  2.000000e+02
 25  9.989435e-01  9.977427e-01  3.232475e-06  2.674295e-03  5.806167e-03  7.000000e-01  1.872006e-03  4.064317e-03 -2.773914e-05  8.833167e+01  7.975114e+02 -3.988286e+02 -3.988286e+02  2.000000e+02
 26  9.996619e-01  9.992797e-01  3.093305e-07  1.026211e-03  2.195729e-03  7.000000e-01  7.183475e-04  1.537011e-03 -2.923145e-06  8.793171e+01  8.003695e+02 -3.995774e+02 -3.995774e+02  2.000000e+02
 27  9.998964e-01  9.997795e-01  2.842977e-08  3.350327e-04  7.139979e-04  7.000000e-01  2.345229e-04  4.997985e-04 -2.809008e-07  8.777906e+01  8.014776e+02 -3.998647e+02 -3.998647e+02  2.000000e+02
 28  9.999687e-01  9.999334e-01  2.576667e-09  1.032870e-04  2.198553e-04  7.000000e-01  7.230090e-05  1.538987e-04 -2.585311e-08  8.772813e+01  8.018404e+02 -3.999586e+02 -3.999586e+02  2.000000e+02
 29  9.999906e-01  9.999800e-01  2.325077e-10  3.126496e-05  6.652400e-05  7.000000e-01  2.188547e-05  4.656680e-05 -2.344159e-09  8.771099e+01  8.019523e+02 -3.999875e+02 -3.999875e+02  2.000000e+02

  k             x             y       f(x, y)            Sx            Sy        lambda |xk - x(k-1)| |yk - y(k-1)| |fk - f(k-1)|         angle           H00           H01           H10           H11
  1 -2.472558e+00  6.120942e+00  1.206413e+01  7.980000e+02 -2.000000e+02 -5.604710e-03  4.472558e+00  1.120942e+00 -8.893587e+01  1.260663e+02  2.802001e+03 -8.000000e+02 -8.000000e+02  2.000000e+02
  2 -2.472951e+00  6.119374e+00  1.206290e+01 -3.707878e-01 -1.479421e+00  1.059579e-03  3.928791e-04  1.567564e-03 -1.232432e-03  1.439252e+02  4.889878e+03  9.890233e+02  9.890233e+02  2.000000e+02
  3 -2.215552e+00  4.846239e+00  1.072955e+01  1.556737e+01 -7.699857e+01  1.653454e-02  2.573992e-01  1.273136e+00 -1.333350e+00     -nan(ind)  4.892836e+03  9.891805e+02  9.891805e+02  2.000000e+02
  4 -1.901019e+00  3.534871e+00  9.040029e+00  2.384224e-01 -9.940425e-01  1.319227e+00  3.145334e-01  1.311368e+00 -1.689523e+00  9.089881e+01  3.953910e+03  8.862208e+02  8.862208e+02  2.000000e+02
  5 -1.478842e+00  2.122893e+00  6.555285e+00  1.726729e-01 -5.775074e-01  2.444952e+00  4.221769e-01  1.411978e+00 -2.484744e+00  9.048427e+01  2.924699e+03  7.604075e+02  7.604075e+02  2.000000e+02
  6 -1.209724e+00  1.423049e+00  5.045969e+00  1.794116e-01 -4.665625e-01  1.500000e+00  2.691174e-01  6.998437e-01 -1.509316e+00  9.060408e+01  1.777211e+03  5.915367e+02  5.915367e+02  2.000000e+02
  7 -1.039318e+00  1.039029e+00  4.328180e+00  2.434373e-01 -5.486002e-01  7.000000e-01  1.704061e-01  3.840201e-01 -7.177891e-01  9.126909e+01  1.188901e+03  4.838898e+02  4.838898e+02  2.000000e+02
  8 -8.846755e-01  7.463903e-01  3.683484e+00  2.209183e-01 -4.180554e-01  7.000000e-01  1.546428e-01  2.926388e-01 -6.446963e-01  9.110524e+01  8.826082e+02  4.157273e+02  4.157273e+02  2.000000e+02
  9 -7.248117e-01  4.889174e-01  3.107723e+00  2.283769e-01 -3.678184e-01  7.000000e-01  1.598638e-01  2.574729e-01 -5.757605e-01  9.124945e+01  6.426256e+02  3.538702e+02  3.538702e+02  2.000000e+02
 10 -5.791229e-01  3.032277e-01  2.597027e+00  2.081268e-01 -2.652709e-01  7.000000e-01  1.456888e-01  1.856897e-01 -5.106958e-01  9.111531e+01  4.368562e+02  2.899247e+02  2.899247e+02  2.000000e+02
 11 -4.303801e-01  1.534560e-01  2.146927e+00  2.124897e-01 -2.139597e-01  7.000000e-01  1.487428e-01  1.497718e-01 -4.500999e-01  9.125649e+01  2.831697e+02  2.316492e+02  2.316492e+02  2.000000e+02
 12 -2.942389e-01  5.851078e-02  1.753823e+00  1.944874e-01 -1.356360e-01  7.000000e-01  1.361412e-01  9.494518e-02 -3.931045e-01  9.118792e+01  1.628909e+02  1.721520e+02  1.721520e+02  2.000000e+02
 13 -1.572525e-01 -2.456678e-03  1.413136e+00  1.956949e-01 -8.709637e-02  7.000000e-01  1.369865e-01  6.096746e-02 -3.406873e-01  9.136826e+01  8.248833e+01  1.176956e+02  1.176956e+02  2.000000e+02
 14 -3.141336e-02 -2.300418e-02  1.121370e+00  1.797701e-01 -2.935358e-02  7.000000e-01  1.258391e-01  2.054750e-02 -2.917655e-01  9.108167e+01  3.265747e+01  6.290098e+01  6.290098e+01  2.000000e+02
 15  9.309767e-02 -1.403312e-02  8.740022e-01  1.778729e-01  1.281580e-02  7.000000e-01  1.245110e-01  8.971063e-03 -2.473681e-01  8.813615e+01  1.238663e+01  1.256534e+01  1.256534e+01  2.000000e+02
 16  2.076788e-01  2.319156e-02  6.675290e-01  1.636873e-01  5.317810e-02  7.000000e-01  1.145811e-01  3.722467e-02 -2.064732e-01  8.791889e+01  1.801466e+01 -3.723907e+01 -3.723907e+01  2.000000e+02
 17  3.188665e-01  8.333146e-02  4.975945e-01  1.588396e-01  8.591415e-02  7.000000e-01  1.111877e-01  6.013990e-02 -1.699345e-01  8.747946e+01  4.448074e+01 -8.307151e+01 -8.307151e+01  2.000000e+02
 18  4.209794e-01  1.612933e-01  3.606425e-01  1.458756e-01  1.113740e-01  7.000000e-01  1.021129e-01  7.796183e-02 -1.369520e-01  8.734215e+01  9.067923e+01 -1.275466e+02 -1.275466e+02  2.000000e+02
 19  5.177947e-01  2.539590e-01  2.525507e-01  1.383075e-01  1.323796e-01  7.000000e-01  9.681528e-02  9.266573e-02 -1.080917e-01  8.703869e+01  1.501519e+02 -1.683918e+02 -1.683918e+02  2.000000e+02
 20  6.630532e-01  4.207190e-01  1.493320e-01  1.258739e-01  1.445060e-01  1.154000e+00  1.452586e-01  1.667600e-01 -1.032188e-01  8.694476e+01  2.221508e+02 -2.071179e+02 -2.071179e+02  2.000000e+02
 21  8.786097e-01  7.644824e-01  2.031957e-02  7.042433e-02  1.123108e-01  3.060824e+00  2.155565e-01  3.437634e-01 -1.290124e-01  8.873837e+01  3.612807e+02 -2.652213e+02 -2.652213e+02  2.000000e+02
 22  9.515923e-01  9.039378e-01  2.596167e-03  4.865508e-02  9.297024e-02  1.500000e+00  7.298262e-02  1.394554e-01 -1.772340e-02  8.797704e+01  6.225538e+02 -3.514439e+02 -3.514439e+02  2.000000e+02
 23  9.937016e-01  9.859033e-01  2.767104e-04  3.671606e-02  7.146761e-02  1.146891e+00  4.210932e-02  8.196555e-02 -2.319456e-03  8.268118e+01  7.270592e+02 -3.806369e+02 -3.806369e+02  2.000000e+02
 24  9.970715e-01  9.936784e-01  3.097162e-05  4.814127e-03  1.110723e-02  7.000000e-01  3.369889e-03  7.775058e-03 -2.457388e-04  8.904334e+01  7.925710e+02 -3.974807e+02 -3.974807e+02  2.000000e+02
 25  9.989435e-01  9.977427e-01  3.232475e-06  2.674295e-03  5.806167e-03  7.000000e-01  1.872006e-03  4.064317e-03 -2.773914e-05  8.833167e+01  7.975114e+02 -3.988286e+02 -3.988286e+02  2.000000e+02
 26  9.996619e-01  9.992797e-01  3.093305e-07  1.026211e-03  2.195729e-03  7.000000e-01  7.183475e-04  1.537011e-03 -2.923145e-06  8.793171e+01  8.003695e+02 -3.995774e+02 -3.995774e+02  2.000000e+02
 27  9.998964e-01  9.997795e-01  2.842977e-08  3.350327e-04  7.139979e-04  7.000000e-01  2.345229e-04  4.997985e-04 -2.809008e-07  8.777906e+01  8.014776e+02 -3.998647e+02 -3.998647e+02  2.000000e+02
 28  9.999687e-01  9.999334e-01  2.576667e-09  1.032870e-04  2.198553e-04  7.000000e-01  7.230090e-05  1.538987e-04 -2.585311e-08  8.772813e+01  8.018404e+02 -3.999586e+02 -3.999586e+02  2.000000e+02
 29  9.999906e-01  9.999800e-01  2.325077e-10  3.126496e-05  6.652400e-05  7.000000e-01  2.188547e-05  4.656680e-05 -2.344159e-09  8.771099e+01  8.019523e+02 -3.999875e+02 -3.999875e+02  2.000000e+02
 30  9.999972e-01  9.999940e-01  2.095263e-11  9.410915e-06  2.002094e-05  7.000000e-01  6.587640e-06  1.401466e-05 -2.115551e-10  8.770434e+01  8.019862e+02 -3.999962e+02 -3.999962e+02  2.000000e+02
 31  9.999992e-01  9.999982e-01  1.887388e-12  2.827972e-06  6.015758e-06  7.000000e-01  1.979580e-06  4.211031e-06 -1.906524e-11  8.770084e+01  8.019964e+02 -3.999989e+02 -3.999989e+02  2.000000e+02

  k             x             y       f(x, y)            Sx            Sy        lambda |xk - x(k-1)| |yk - y(k-1)| |fk - f(k-1)|         angle           H00           H01           H10           H11
  1 -2.472558e+00  6.120942e+00  1.206413e+01  7.980000e+02 -2.000000e+02 -5.604710e-03  4.472558e+00  1.120942e+00 -8.893587e+01  1.260663e+02  2.802001e+03 -8.000000e+02 -8.000000e+02  2.000000e+02
  2 -2.472951e+00  6.119374e+00  1.206290e+01 -3.707878e-01 -1.479421e+00  1.059579e-03  3.928791e-04  1.567564e-03 -1.232432e-03  1.439252e+02  4.889878e+03  9.890233e+02  9.890233e+02  2.000000e+02
  3 -2.215552e+00  4.846239e+00  1.072955e+01  1.556737e+01 -7.699857e+01  1.653454e-02  2.573992e-01  1.273136e+00 -1.333350e+00     -nan(ind)  4.892836e+03  9.891805e+02  9.891805e+02  2.000000e+02
  4 -1.901019e+00  3.534871e+00  9.040029e+00  2.384224e-01 -9.940425e-01  1.319227e+00  3.145334e-01  1.311368e+00 -1.689523e+00  9.089881e+01  3.953910e+03  8.862208e+02  8.862208e+02  2.000000e+02
  5 -1.478842e+00  2.122893e+00  6.555285e+00  1.726729e-01 -5.775074e-01  2.444952e+00  4.221769e-01  1.411978e+00 -2.484744e+00  9.048427e+01  2.924699e+03  7.604075e+02  7.604075e+02  2.000000e+02
  6 -1.209724e+00  1.423049e+00  5.045969e+00  1.794116e-01 -4.665625e-01  1.500000e+00  2.691174e-01  6.998437e-01 -1.509316e+00  9.060408e+01  1.777211e+03  5.915367e+02  5.915367e+02  2.000000e+02
  7 -1.039318e+00  1.039029e+00  4.328180e+00  2.434373e-01 -5.486002e-01  7.000000e-01  1.704061e-01  3.840201e-01 -7.177891e-01  9.126909e+01  1.188901e+03  4.838898e+02  4.838898e+02  2.000000e+02
  8 -8.846755e-01  7.463903e-01  3.683484e+00  2.209183e-01 -4.180554e-01  7.000000e-01  1.546428e-01  2.926388e-01 -6.446963e-01  9.110524e+01  8.826082e+02  4.157273e+02  4.157273e+02  2.000000e+02
